time_unix,monotonic,rpm,duty_cycle,motor_current,input_voltage,temperature,fault_code
1778195920.340,4596.096,0.0,0.0,0.0,22.6,0.0,0
1778195920.841,4596.598,0.0,0.0,0.0,22.6,0.0,0
1778195921.343,4597.099,0.0,0.0,0.0,22.6,0.0,0
1778195921.794,4597.550,0.0,0.0,0.0,22.6,0.0,0
1778195922.296,4598.052,0.0,0.0,0.0,22.6,0.0,0
1778195922.797,4598.553,0.0,0.0,0.0,22.6,0.0,0
1778195923.298,4599.055,0.0,0.0,0.0,22.6,0.0,0
1778195923.800,4599.556,0.0,0.0,0.0,22.6,0.0,0
1778195924.301,4600.057,0.0,0.0,0.0,22.6,0.0,0
1778195924.803,4600.559,0.0,0.0,0.0,22.6,0.0,0
1778195925.304,4601.061,0.0,0.0,0.0,22.6,0.0,0
1778195925.806,4601.563,0.0,0.0,0.0,22.6,0.0,0
1778195926.308,4602.065,0.0,0.0,0.0,22.6,0.0,0
1778195926.810,4602.566,0.0,0.0,0.0,22.6,0.0,0
1778195927.312,4603.068,0.0,0.0,0.0,22.6,0.0,0
1778195927.813,4603.570,0.0,0.0,0.0,22.6,0.0,0
1778195928.315,4604.071,0.0,0.0,0.0,22.6,0.0,0
1778195928.816,4604.572,0.0,0.0,0.0,22.6,0.0,0
1778195929.317,4605.074,0.0,0.0,0.0,22.6,0.0,0
1778195929.819,4605.575,0.0,0.0,0.0,22.6,0.0,0
1778195930.320,4606.077,0.0,0.0,0.0,22.6,0.0,0
1778195930.822,4606.578,0.0,0.0,0.0,22.6,0.0,0
1778195931.323,4607.080,0.0,0.0,0.0,22.6,0.0,0
1778195931.825,4607.581,0.0,0.0,0.0,22.6,0.0,0
1778195932.326,4608.083,0.0,0.0,0.0,22.6,0.0,0
1778195932.828,4608.584,0.0,0.0,0.0,22.6,0.0,0
1778195933.329,4609.085,0.0,0.0,0.0,22.6,0.0,0
1778195933.830,4609.587,0.0,0.0,0.0,22.6,0.0,0
1778195934.332,4610.088,0.0,0.0,0.0,22.6,0.0,0
1778195934.834,4610.590,0.0,0.0,0.0,22.6,0.0,0
1778195935.335,4611.092,0.0,0.0,0.0,22.6,0.0,0
1778195935.837,4611.593,0.0,0.0,0.0,22.6,0.0,0
1778195936.338,4612.094,0.0,0.0,0.0,22.6,0.0,0
1778195936.839,4612.596,0.0,0.0,0.0,22.5,0.0,0
1778195937.341,4613.097,0.0,0.0,0.0,22.6,0.0,0
1778195937.842,4613.599,0.0,0.0,0.0,22.6,0.0,0
1778195938.294,4614.050,0.0,0.0,0.0,22.6,0.0,0
1778195938.795,4614.551,0.0,0.0,0.0,22.6,0.0,0
1778195939.296,4615.053,0.0,0.0,0.0,22.6,0.0,0
1778195939.798,4615.555,0.0,0.0,0.0,22.6,0.0,0
1778195940.300,4616.056,0.0,0.0,0.0,22.6,0.0,0
1778195940.801,4616.558,0.0,0.0,0.0,22.6,0.0,0
1778195941.303,4617.059,0.0,0.0,0.0,22.6,0.0,0
1778195941.804,4617.560,0.0,0.0,0.0,22.6,0.0,0
1778195942.305,4618.062,0.0,0.0,0.0,22.6,0.0,0
1778195942.807,4618.564,0.0,0.0,0.0,22.6,0.0,0
1778195943.308,4619.065,0.0,0.0,0.0,22.6,0.0,0
1778195943.810,4619.567,0.0,0.0,0.0,22.6,0.0,0
1778195944.313,4620.070,0.0,0.0,0.0,22.6,0.0,0
1778195944.815,4620.571,0.0,0.0,0.0,22.6,0.0,0
1778195945.317,4621.073,0.0,0.0,0.0,22.6,0.0,0
1778195945.818,4621.575,0.0,0.0,0.0,22.6,0.0,0
1778195946.319,4622.076,0.0,0.0,0.0,22.6,0.0,0
1778195946.821,4622.577,0.0,0.0,0.0,22.6,0.0,0
1778195947.322,4623.078,0.0,0.0,0.0,22.6,0.0,0
1778195947.823,4623.580,0.0,0.0,0.0,22.6,0.0,0
1778195948.325,4624.081,0.0,0.0,0.0,22.6,0.0,0
1778195948.826,4624.583,0.0,0.0,0.0,22.6,0.0,0
1778195949.328,4625.084,0.0,0.0,0.0,22.6,0.0,0
1778195949.829,4625.586,0.0,0.0,0.0,22.6,0.0,0
1778195950.331,4626.088,0.0,0.0,0.0,22.6,0.0,0
1778195950.833,4626.589,0.0,0.0,0.0,22.6,0.0,0
1778195951.334,4627.090,0.0,0.0,0.0,22.5,0.0,0
1778195951.835,4627.592,0.0,0.0,0.0,22.6,0.0,0
1778195952.337,4628.093,0.0,0.0,0.0,22.6,0.0,0
1778195952.838,4628.595,0.0,0.0,0.0,22.6,0.0,0
1778195953.340,4629.096,0.0,0.0,0.0,22.6,0.0,0
1778195953.841,4629.597,0.0,0.0,0.0,22.6,0.0,0
1778195954.342,4630.099,0.0,0.0,0.0,22.5,0.0,0
1778195954.794,4630.550,0.0,0.0,0.0,22.6,0.0,0
1778195955.295,4631.052,0.0,0.0,0.0,22.6,0.0,0
1778195955.797,4631.553,0.0,0.0,0.0,22.6,0.0,0
1778195956.298,4632.055,0.0,0.0,0.0,22.6,0.0,0
1778195956.800,4632.556,0.0,0.0,0.0,22.6,0.0,0
1778195957.301,4633.057,0.0,0.0,0.0,22.6,0.0,0
1778195957.803,4633.559,0.0,0.0,0.0,22.6,0.0,0
1778195958.304,4634.061,0.0,0.0,0.0,22.6,0.0,0
1778195958.806,4634.562,0.0,0.0,0.0,22.6,0.0,0
1778195959.307,4635.063,0.0,0.0,0.0,22.6,0.0,0
1778195959.808,4635.565,0.0,0.0,0.0,22.6,0.0,0
1778195960.310,4636.066,0.0,0.0,0.0,22.6,0.0,0
1778195960.811,4636.568,0.0,0.0,0.0,22.6,0.0,0
1778195961.313,4637.069,0.0,0.0,0.0,22.6,0.0,0
1778195961.815,4637.571,0.0,0.0,0.0,22.6,0.0,0
1778195962.317,4638.073,0.0,0.0,0.0,22.6,0.0,0
1778195962.819,4638.576,0.0,0.0,0.0,22.6,0.0,0
1778195963.321,4639.077,0.0,0.0,0.0,22.6,0.0,0
1778195963.822,4639.578,0.0,0.0,0.0,22.6,0.0,0
1778195964.323,4640.080,0.0,0.0,0.0,22.6,0.0,0
1778195964.824,4640.581,0.0,0.0,0.0,22.6,0.0,0
1778195965.326,4641.083,0.0,0.0,0.0,22.6,0.0,0
1778195965.828,4641.585,0.0,0.0,0.0,22.6,0.0,0
1778195966.329,4642.086,0.0,0.0,0.0,22.6,0.0,0
1778195966.831,4642.587,0.0,0.0,0.0,22.6,0.0,0
1778195967.332,4643.089,0.0,0.0,0.0,22.6,0.0,0
1778195967.834,4643.591,0.0,0.0,0.0,22.6,0.0,0
1778195968.335,4644.092,0.0,0.0,0.0,22.6,0.0,0
1778195968.837,4644.593,0.0,0.0,0.0,22.6,0.0,0
1778195969.338,4645.095,0.0,0.0,0.0,22.6,0.0,0
1778195969.839,4645.596,0.0,0.0,0.0,22.6,0.0,0
1778195970.341,4646.098,0.0,0.0,0.0,22.6,0.0,0
1778195970.843,4646.599,0.0,0.0,0.0,22.6,0.0,0
1778195971.294,4647.050,0.0,0.0,0.0,22.6,0.0,0
1778195971.796,4647.552,0.0,0.0,0.0,22.6,0.0,0
1778195972.297,4648.053,0.0,0.0,0.0,22.6,0.0,0
1778195972.799,4648.555,0.0,0.0,0.0,22.5,0.0,0
1778195973.300,4649.057,0.0,0.0,0.0,22.6,0.0,0
1778195973.802,4649.558,0.0,0.0,0.0,22.6,0.0,0
1778195974.303,4650.060,0.0,0.0,0.0,22.6,0.0,0
1778195974.805,4650.561,0.0,0.0,0.0,22.6,0.0,0
1778195975.307,4651.063,0.0,0.0,0.0,22.5,0.0,0
1778195975.809,4651.565,0.0,0.0,0.0,22.6,0.0,0
1778195976.310,4652.067,0.0,0.0,0.0,22.6,0.0,0
1778195976.812,4652.568,0.0,0.0,0.0,22.6,0.0,0
1778195977.313,4653.070,0.0,0.0,0.0,22.6,0.0,0
1778195977.815,4653.571,0.0,0.0,0.0,22.6,0.0,0
1778195978.317,4654.073,0.0,0.0,0.0,22.6,0.0,0
1778195978.818,4654.574,0.0,0.0,0.0,22.6,0.0,0
1778195979.319,4655.076,0.0,0.0,0.0,22.5,0.0,0
1778195979.821,4655.577,0.0,0.0,0.0,22.6,0.0,0
1778195980.323,4656.080,0.0,0.0,0.0,22.6,0.0,0
1778195980.825,4656.581,0.0,0.0,0.0,22.6,0.0,0
1778195981.326,4657.082,0.0,0.0,0.0,22.6,0.0,0
1778195981.827,4657.584,0.0,0.0,0.0,22.6,0.0,0
1778195982.328,4658.085,0.0,0.0,0.0,22.6,0.0,0
1778195982.830,4658.586,0.0,0.0,0.0,22.6,0.0,0
1778195983.331,4659.088,0.0,0.0,0.0,22.6,0.0,0
1778195983.832,4659.589,0.0,0.0,0.0,22.6,0.0,0
1778195984.334,4660.090,0.0,0.0,0.0,22.6,0.0,0
1778195984.835,4660.592,0.0,0.0,0.0,22.5,0.0,0
1778195985.337,4661.093,0.0,0.0,0.0,22.6,0.0,0
1778195985.838,4661.595,0.0,0.0,0.0,22.5,0.0,0
1778195986.340,4662.096,0.0,0.0,0.0,22.5,0.0,0
1778195986.841,4662.598,0.0,0.0,0.0,22.6,0.0,0
1778195987.343,4663.099,0.0,0.0,0.0,22.6,0.0,0
1778195987.794,4663.550,0.0,0.0,0.0,22.6,0.0,0
1778195988.295,4664.052,0.0,0.0,0.0,22.5,0.0,0
1778195988.797,4664.553,0.0,0.0,0.0,22.5,0.0,0
1778195989.298,4665.054,0.0,0.0,0.0,22.5,0.0,0
1778195989.799,4665.556,0.0,0.0,0.0,22.6,0.0,0
1778195990.301,4666.057,0.0,0.0,0.0,22.5,0.0,0
1778195990.802,4666.559,0.0,0.0,0.0,22.6,0.0,0
1778195991.304,4667.060,0.0,0.0,0.0,22.5,0.0,0
1778195991.805,4667.562,0.0,0.0,0.0,22.5,0.0,0
1778195992.307,4668.064,0.0,0.0,0.0,22.6,0.0,0
1778195992.809,4668.566,0.0,0.0,0.0,22.5,0.0,0
1778195993.311,4669.067,0.0,0.0,0.0,22.6,0.0,0
1778195993.812,4669.569,0.0,0.0,0.0,22.6,0.0,0
1778195994.314,4670.070,0.0,0.0,0.0,22.6,0.0,0
1778195994.815,4670.572,0.0,0.0,0.0,22.6,0.0,0
1778195995.317,4671.073,0.0,0.0,0.0,22.6,0.0,0
1778195995.819,4671.575,0.0,0.0,0.0,22.6,0.0,0
1778195996.320,4672.077,0.0,0.0,0.0,22.6,0.0,0
1778195996.822,4672.578,0.0,0.0,0.0,22.6,0.0,0
1778195997.323,4673.080,0.0,0.0,0.0,22.6,0.0,0
1778195997.825,4673.581,0.0,0.0,0.0,22.6,0.0,0
1778195998.326,4674.082,0.0,0.0,0.0,22.6,0.0,0
1778195998.827,4674.584,0.0,0.0,0.0,22.6,0.0,0
1778195999.328,4675.085,0.0,0.0,0.0,22.6,0.0,0
1778195999.830,4675.586,0.0,0.0,0.0,22.6,0.0,0
1778196000.331,4676.088,0.0,0.0,0.0,22.6,0.0,0
1778196000.833,4676.589,0.0,0.0,0.0,22.6,0.0,0
1778196001.334,4677.091,0.0,0.0,0.0,22.6,0.0,0
1778196001.836,4677.592,0.0,0.0,0.0,22.6,0.0,0
1778196002.337,4678.094,0.0,0.0,0.0,22.6,0.0,0
1778196002.839,4678.595,0.0,0.0,0.0,22.6,0.0,0
1778196003.340,4679.097,0.0,0.0,0.0,22.6,0.0,0
1778196003.842,4679.598,0.0,0.0,0.0,22.6,0.0,0
1778196004.293,4680.049,0.0,0.0,0.0,22.6,0.0,0
1778196004.794,4680.551,0.0,0.0,0.0,22.6,0.0,0
1778196005.297,4681.053,0.0,0.0,0.0,22.6,0.0,0
1778196005.798,4681.555,0.0,0.0,0.0,22.6,0.0,0
1778196006.299,4682.056,0.0,0.0,0.0,22.6,0.0,0
1778196006.801,4682.557,0.0,0.0,0.0,22.6,0.0,0
1778196007.302,4683.059,0.0,0.0,0.0,22.6,0.0,0
1778196007.804,4683.561,0.0,0.0,0.0,22.6,0.0,0
1778196008.306,4684.063,0.0,0.0,0.0,22.6,0.0,0
1778196008.808,4684.564,0.0,0.0,0.0,22.6,0.0,0
1778196009.309,4685.066,0.0,0.0,0.0,22.6,0.0,0
1778196009.811,4685.568,0.0,0.0,0.0,22.6,0.0,0
1778196010.313,4686.070,0.0,0.0,0.0,22.6,0.0,0
1778196010.815,4686.571,0.0,0.0,0.0,22.6,0.0,0
1778196011.316,4687.073,0.0,0.0,0.0,22.6,0.0,0
1778196011.818,4687.574,0.0,0.0,0.0,22.6,0.0,0
1778196012.319,4688.076,0.0,0.0,0.0,22.6,0.0,0
1778196012.821,4688.577,0.0,0.0,0.0,22.6,0.0,0
1778196013.322,4689.079,0.0,0.0,0.0,22.5,0.0,0
1778196013.824,4689.580,0.0,0.0,0.0,22.6,0.0,0
1778196014.325,4690.082,0.0,0.0,0.0,22.5,0.0,0
1778196014.827,4690.583,0.0,0.0,0.0,22.6,0.0,0
1778196015.328,4691.085,0.0,0.0,0.0,22.5,0.0,0
1778196015.830,4691.586,0.0,0.0,0.0,22.5,0.0,0
1778196016.331,4692.088,0.0,0.0,0.0,22.6,0.0,0
1778196016.832,4692.589,0.0,0.0,0.0,22.5,0.0,0
1778196017.334,4693.090,0.0,0.0,0.0,22.6,0.0,0
1778196017.835,4693.592,0.0,0.0,0.0,22.5,0.0,0
1778196018.337,4694.093,0.0,0.0,0.0,22.6,0.0,0
1778196018.838,4694.595,0.0,0.0,0.0,22.6,0.0,0
1778196019.340,4695.096,0.0,0.0,0.0,22.5,0.0,0
1778196019.841,4695.598,0.0,0.0,0.0,22.6,0.0,0
1778196020.343,4696.099,0.0,0.0,0.0,22.6,0.0,0
1778196020.794,4696.550,0.0,0.0,0.0,22.6,0.0,0
1778196021.295,4697.052,0.0,0.0,0.0,22.6,0.0,0
1778196021.797,4697.553,0.0,0.0,0.0,22.6,0.0,0
1778196022.298,4698.055,0.0,0.0,0.0,22.5,0.0,0
1778196022.799,4698.556,0.0,0.0,0.0,22.6,0.0,0
1778196023.301,4699.057,0.0,0.0,0.0,22.5,0.0,0
1778196023.802,4699.559,0.0,0.0,0.0,22.6,0.0,0
1778196024.304,4700.060,0.0,0.0,0.0,22.6,0.0,0
1778196024.805,4700.562,0.0,0.0,0.0,22.6,0.0,0
1778196025.307,4701.063,0.0,0.0,0.0,22.5,0.0,0
1778196025.808,4701.565,0.0,0.0,0.0,22.6,0.0,0
1778196026.310,4702.067,0.0,0.0,0.0,22.6,0.0,0
1778196026.812,4702.568,0.0,0.0,0.0,22.6,0.0,0
1778196027.313,4703.070,0.0,0.0,0.0,22.6,0.0,0
1778196027.815,4703.572,0.0,0.0,0.0,22.5,0.0,0
1778196028.317,4704.074,0.0,0.0,0.0,22.6,0.0,0
1778196028.819,4704.576,0.0,0.0,0.0,22.5,0.0,0
1778196029.321,4705.077,0.0,0.0,0.0,22.6,0.0,0
1778196029.822,4705.579,0.0,0.0,0.0,22.5,0.0,0
1778196030.323,4706.080,0.0,0.0,0.0,22.5,0.0,0
1778196030.825,4706.581,0.0,0.0,0.0,22.6,0.0,0
1778196031.326,4707.083,0.0,0.0,0.0,22.5,0.0,0
1778196031.828,4707.584,0.0,0.0,0.0,22.5,0.0,0
1778196032.329,4708.086,0.0,0.0,0.0,22.6,0.0,0
1778196032.831,4708.587,0.0,0.0,0.0,22.5,0.0,0
1778196033.333,4709.089,0.0,0.0,0.0,22.5,0.0,0
1778196033.835,4709.591,0.0,0.0,0.0,22.6,0.0,0
1778196034.336,4710.092,0.0,0.0,0.0,22.5,0.0,0
1778196034.838,4710.594,0.0,0.0,0.0,22.6,0.0,0
1778196035.339,4711.095,0.0,0.0,0.0,22.5,0.0,0
1778196035.840,4711.597,0.0,0.0,0.0,22.6,0.0,0
1778196036.342,4712.099,0.0,0.0,0.0,22.6,0.0,0
1778196036.794,4712.550,0.0,0.0,0.0,22.6,0.0,0
1778196037.295,4713.051,0.0,0.0,0.0,22.6,0.0,0
1778196037.796,4713.553,0.0,0.0,0.0,22.6,0.0,0
1778196038.298,4714.054,0.0,0.0,0.0,22.5,0.0,0
1778196038.800,4714.556,0.0,0.0,0.0,22.6,0.0,0
1778196039.301,4715.058,0.0,0.0,0.0,22.6,0.0,0
1778196039.802,4715.559,0.0,0.0,0.0,22.5,0.0,0
1778196040.304,4716.060,0.0,0.0,0.0,22.6,0.0,0
1778196040.805,4716.562,0.0,0.0,0.0,22.5,0.0,0
1778196041.307,4717.064,0.0,0.0,0.0,22.6,0.0,0
1778196041.808,4717.565,0.0,0.0,0.0,22.5,0.0,0
1778196042.310,4718.066,0.0,0.0,0.0,22.5,0.0,0
1778196042.811,4718.568,0.0,0.0,0.0,22.6,0.0,0
1778196043.313,4719.069,0.0,0.0,0.0,22.6,0.0,0
1778196043.814,4719.571,0.0,0.0,0.0,22.6,0.0,0
1778196044.315,4720.072,0.0,0.0,0.0,22.6,0.0,0
1778196044.817,4720.573,0.0,0.0,0.0,22.6,0.0,0
1778196045.319,4721.075,0.0,0.0,0.0,22.6,0.0,0
1778196045.820,4721.577,0.0,0.0,0.0,22.6,0.0,0
1778196046.321,4722.078,0.0,0.0,0.0,22.5,0.0,0
1778196046.823,4722.579,0.0,0.0,0.0,22.6,0.0,0
1778196047.324,4723.080,0.0,0.0,0.0,22.6,0.0,0
1778196047.826,4723.582,0.0,0.0,0.0,22.6,0.0,0
1778196048.327,4724.084,0.0,0.0,0.0,22.6,0.0,0
1778196048.829,4724.585,0.0,0.0,0.0,22.6,0.0,0
1778196049.330,4725.086,0.0,0.0,0.0,22.5,0.0,0
1778196049.831,4725.588,0.0,0.0,0.0,22.6,0.0,0
1778196050.333,4726.090,0.0,0.0,0.0,22.5,0.0,0
1778196050.835,4726.591,0.0,0.0,0.0,22.6,0.0,0
1778196051.336,4727.092,0.0,0.0,0.0,22.6,0.0,0
1778196051.837,4727.594,0.0,0.0,0.0,22.6,0.0,0
1778196052.339,4728.096,0.0,0.0,0.0,22.6,0.0,0
1778196052.841,4728.597,0.0,0.0,0.0,22.6,0.0,0
1778196053.342,4729.099,0.0,0.0,0.0,22.6,0.0,0
1778196053.793,4729.550,0.0,0.0,0.0,22.6,0.0,0
1778196054.295,4730.051,0.0,0.0,0.0,22.6,0.0,0
1778196054.796,4730.553,0.0,0.0,0.0,22.5,0.0,0
1778196055.298,4731.054,0.0,0.0,0.0,22.6,0.0,0
1778196055.799,4731.556,0.0,0.0,0.0,22.5,0.0,0
1778196056.301,4732.057,0.0,0.0,0.0,22.6,0.0,0
1778196056.802,4732.558,0.0,0.0,0.0,22.6,0.0,0
1778196057.303,4733.060,0.0,0.0,0.0,22.5,0.0,0
1778196057.805,4733.561,0.0,0.0,0.0,22.6,0.0,0
1778196058.306,4734.063,0.0,0.0,0.0,22.5,0.0,0
1778196058.808,4734.564,0.0,0.0,0.0,22.6,0.0,0
1778196059.309,4735.065,0.0,0.0,0.0,22.5,0.0,0
1778196059.810,4735.567,0.0,0.0,0.0,22.5,0.0,0
1778196060.312,4736.069,0.0,0.0,0.0,22.6,0.0,0
1778196060.814,4736.570,0.0,0.0,0.0,22.6,0.0,0
1778196061.315,4737.072,0.0,0.0,0.0,22.5,0.0,0
1778196061.817,4737.573,0.0,0.0,0.0,22.6,0.0,0
1778196062.319,4738.075,0.0,0.0,0.0,22.5,0.0,0
1778196062.821,4738.577,0.0,0.0,0.0,22.5,0.0,0
1778196063.322,4739.078,0.0,0.0,0.0,22.6,0.0,0
1778196063.823,4739.580,0.0,0.0,0.0,22.5,0.0,0
1778196064.324,4740.081,0.0,0.0,0.0,22.6,0.0,0
1778196064.826,4740.582,0.0,0.0,0.0,22.5,0.0,0
1778196065.327,4741.084,0.0,0.0,0.0,22.6,0.0,0
1778196065.828,4741.585,0.0,0.0,0.0,22.6,0.0,0
1778196066.330,4742.086,0.0,0.0,0.0,22.6,0.0,0
1778196066.831,4742.588,0.0,0.0,0.0,22.6,0.0,0
1778196067.333,4743.089,0.0,0.0,0.0,22.6,0.0,0
1778196067.835,4743.591,0.0,0.0,0.0,22.5,0.0,0
1778196068.336,4744.092,0.0,0.0,0.0,22.6,0.0,0
1778196068.837,4744.594,0.0,0.0,0.0,22.6,0.0,0
1778196069.339,4745.095,0.0,0.0,0.0,22.5,0.0,0
1778196069.840,4745.597,0.0,0.0,0.0,22.6,0.0,0
1778196070.342,4746.098,0.0,0.0,0.0,22.5,0.0,0
1778196070.793,4746.550,0.0,0.0,0.0,22.5,0.0,0
1778196071.295,4747.051,0.0,0.0,0.0,22.6,0.0,0
1778196071.796,4747.553,0.0,0.0,0.0,22.6,0.0,0
1778196072.298,4748.054,0.0,0.0,0.0,22.5,0.0,0
1778196072.799,4748.556,0.0,0.0,0.0,22.6,0.0,0
1778196073.301,4749.057,0.0,0.0,0.0,22.5,0.0,0
1778196073.802,4749.559,0.0,0.0,0.0,22.6,0.0,0
1778196074.303,4750.060,0.0,0.0,0.0,22.5,0.0,0
1778196074.805,4750.561,0.0,0.0,0.0,22.5,0.0,0
1778196075.306,4751.063,0.0,0.0,0.0,22.6,0.0,0
1778196075.808,4751.564,0.0,0.0,0.0,22.5,0.0,0
1778196076.309,4752.066,0.0,0.0,0.0,22.6,0.0,0
1778196076.811,4752.567,0.0,0.0,0.0,22.6,0.0,0
1778196077.313,4753.069,0.0,0.0,0.0,22.5,0.0,0
1778196077.814,4753.571,0.0,0.0,0.0,22.5,0.0,0
1778196078.315,4754.072,0.0,0.0,0.0,22.6,0.0,0
1778196078.817,4754.573,0.0,0.0,0.0,22.5,0.0,0
1778196079.319,4755.076,0.0,0.0,0.0,22.6,0.0,0
1778196079.821,4755.577,0.0,0.0,0.0,22.5,0.0,0
1778196080.322,4756.079,0.0,0.0,0.0,22.6,0.0,0
1778196080.824,4756.580,0.0,0.0,0.0,22.6,0.0,0
1778196081.325,4757.081,0.0,0.0,0.0,22.6,0.0,0
1778196081.826,4757.583,0.0,0.0,0.0,22.6,0.0,0
1778196082.328,4758.084,0.0,0.0,0.0,22.5,0.0,0
1778196082.829,4758.586,0.0,0.0,0.0,22.5,0.0,0
1778196083.331,4759.087,0.0,0.0,0.0,22.5,0.0,0
1778196083.832,4759.588,0.0,0.0,0.0,22.5,0.0,0
1778196084.333,4760.090,0.0,0.0,0.0,22.5,0.0,0
1778196084.835,4760.591,0.0,0.0,0.0,22.6,0.0,0
1778196085.336,4761.093,0.0,0.0,0.0,22.5,0.0,0
1778196085.838,4761.594,0.0,0.0,0.0,22.6,0.0,0
1778196086.339,4762.096,0.0,0.0,0.0,22.5,0.0,0
1778196086.841,4762.597,0.0,0.0,0.0,22.5,0.0,0
1778196087.342,4763.099,0.0,0.0,0.0,22.6,0.0,0
1778196087.794,4763.550,0.0,0.0,0.0,22.5,0.0,0
1778196088.295,4764.051,0.0,0.0,0.0,22.6,0.0,0
1778196088.796,4764.553,0.0,0.0,0.0,22.5,0.0,0
1778196089.298,4765.054,0.0,0.0,0.0,22.5,0.0,0
1778196089.800,4765.556,0.0,0.0,0.0,22.5,0.0,0
1778196090.301,4766.057,0.0,0.0,0.0,22.6,0.0,0
1778196090.802,4766.559,0.0,0.0,0.0,22.5,0.0,0
1778196091.304,4767.060,0.0,0.0,0.0,22.6,0.0,0
1778196091.805,4767.562,0.0,0.0,0.0,22.5,0.0,0
1778196092.307,4768.063,0.0,0.0,0.0,22.5,0.0,0
1778196092.808,4768.565,0.0,0.0,0.0,22.6,0.0,0
1778196093.310,4769.066,0.0,0.0,0.0,22.5,0.0,0
1778196093.811,4769.567,0.0,0.0,0.0,22.6,0.0,0
1778196094.313,4770.069,0.0,0.0,0.0,22.6,0.0,0
1778196094.814,4770.571,0.0,0.0,0.0,22.6,0.0,0
1778196095.315,4771.072,0.0,0.0,0.0,22.6,0.0,0
1778196095.817,4771.573,0.0,0.0,0.0,22.6,0.0,0
1778196096.319,4772.075,0.0,0.0,0.0,22.6,0.0,0
1778196096.821,4772.577,0.0,0.0,0.0,22.6,0.0,0
1778196097.322,4773.079,0.0,0.0,0.0,22.5,0.0,0
1778196097.824,4773.580,0.0,0.0,0.0,22.6,0.0,0
1778196098.325,4774.081,0.0,0.0,0.0,22.6,0.0,0
1778196098.826,4774.583,0.0,0.0,0.0,22.5,0.0,0
1778196099.328,4775.084,0.0,0.0,0.0,22.6,0.0,0
1778196099.829,4775.585,0.0,0.0,0.0,22.6,0.0,0
1778196100.330,4776.087,0.0,0.0,0.0,22.6,0.0,0
1778196100.832,4776.588,0.0,0.0,0.0,22.6,0.0,0
1778196101.333,4777.089,0.0,0.0,0.0,22.6,0.0,0
1778196101.835,4777.591,0.0,0.0,0.0,22.5,0.0,0
1778196102.336,4778.092,0.0,0.0,0.0,22.6,0.0,0
1778196102.837,4778.594,0.0,0.0,0.0,22.5,0.0,0
1778196103.339,4779.095,0.0,0.0,0.0,22.6,0.0,0
1778196103.840,4779.596,0.0,0.0,0.0,22.5,0.0,0
1778196104.342,4780.098,0.0,0.0,0.0,22.5,0.0,0
1778196104.843,4780.599,0.0,0.0,0.0,22.6,0.0,0
1778196105.294,4781.051,0.0,0.0,0.0,22.6,0.0,0
1778196105.796,4781.552,0.0,0.0,0.0,22.6,0.0,0
1778196106.297,4782.054,0.0,0.0,0.0,22.6,0.0,0
1778196106.799,4782.555,0.0,0.0,0.0,22.5,0.0,0
1778196107.300,4783.057,0.0,0.0,0.0,22.5,0.0,0
1778196107.801,4783.558,0.0,0.0,0.0,22.6,0.0,0
1778196108.303,4784.059,0.0,0.0,0.0,22.5,0.0,0
1778196108.804,4784.561,0.0,0.0,0.0,22.6,0.0,0
1778196109.306,4785.062,0.0,0.0,0.0,22.6,0.0,0
1778196109.807,4785.564,0.0,0.0,0.0,22.6,0.0,0
1778196110.309,4786.065,0.0,0.0,0.0,22.6,0.0,0
1778196110.811,4786.568,0.0,0.0,0.0,22.6,0.0,0
1778196111.313,4787.069,0.0,0.0,0.0,22.6,0.0,0
1778196111.814,4787.571,0.0,0.0,0.0,22.6,0.0,0
1778196112.317,4788.073,0.0,0.0,0.0,22.5,0.0,0
1778196112.818,4788.574,0.0,0.0,0.0,22.6,0.0,0
1778196113.319,4789.076,0.0,0.0,0.0,22.6,0.0,0
1778196113.822,4789.578,0.0,0.0,0.0,22.5,0.0,0
1778196114.324,4790.080,0.0,0.0,0.0,22.6,0.0,0
1778196114.825,4790.582,0.0,0.0,0.0,22.5,0.0,0
1778196115.327,4791.083,0.0,0.0,0.0,22.6,0.0,0
1778196115.828,4791.585,0.0,0.0,0.0,22.5,0.0,0
1778196116.329,4792.086,0.0,0.0,0.0,22.5,0.0,0
1778196116.831,4792.587,0.0,0.0,0.0,22.6,0.0,0
1778196117.333,4793.089,0.0,0.0,0.0,22.5,0.0,0
1778196117.834,4793.590,0.0,0.0,0.0,22.6,0.0,0
1778196118.335,4794.092,0.0,0.0,0.0,22.6,0.0,0
1778196118.837,4794.593,0.0,0.0,0.0,22.5,0.0,0
1778196119.338,4795.095,0.0,0.0,0.0,22.5,0.0,0
1778196119.840,4795.596,0.0,0.0,0.0,22.6,0.0,0
1778196120.341,4796.098,0.0,0.0,0.0,22.5,0.0,0
1778196120.794,4796.551,0.0,0.0,0.0,22.6,0.0,0
1778196121.295,4797.052,0.0,0.0,0.0,22.5,0.0,0
1778196121.797,4797.553,0.0,0.0,0.0,22.5,0.0,0
1778196122.299,4798.055,0.0,0.0,0.0,22.6,0.0,0
1778196122.800,4798.556,0.0,0.0,0.0,22.5,0.0,0
1778196123.301,4799.058,0.0,0.0,0.0,22.5,0.0,0
1778196123.803,4799.559,0.0,0.0,0.0,22.5,0.0,0
1778196124.304,4800.061,0.0,0.0,0.0,22.5,0.0,0
1778196124.806,4800.563,0.0,0.0,0.0,22.5,0.0,0
1778196125.307,4801.064,0.0,0.0,0.0,22.5,0.0,0
1778196125.809,4801.565,0.0,0.0,0.0,22.5,0.0,0
1778196126.311,4802.067,0.0,0.0,0.0,22.5,0.0,0
1778196126.813,4802.570,0.0,0.0,0.0,22.5,0.0,0
